    Time      Ur        Uinf      Ct_adm    a        Yaw(deg)  Thrust     Power  
    0.000     5.350     5.350     0.507     0.149     0.000  107513.6   575248.1
    0.500     5.344     6.279     0.507     0.149     0.000  107282.1   573322.6
    1.000     5.335     6.269     0.515     0.152     0.000  109254.2   582923.6
    1.500     5.323     6.274     0.515     0.152     0.000  108765.1   578933.3
    2.000     5.308     6.256     0.522     0.154     0.000  110453.2   586255.8
    2.500     5.289     6.254     0.522     0.154     0.000  109704.0   580183.9
    3.000     5.267     6.229     0.529     0.157     0.000  111118.3   585315.4
    3.500     5.243     6.219     0.529     0.157     0.000  110153.7   577531.7
    4.000     5.217     6.189     0.537     0.160     0.000  111354.1   580966.2
    4.500     5.189     6.175     0.537     0.160     0.000  110262.1   572194.7
    5.000     5.162     6.142     0.544     0.162     0.000  111346.5   574739.6
    5.500     5.133     6.128     0.544     0.162     0.000  110238.2   565886.3
    6.000     5.107     6.096     0.548     0.164     0.000  110312.1   563310.9
    6.500     5.081     6.076     0.548     0.164     0.000  109332.8   555534.0
    7.000     5.058     6.048     0.546     0.163     0.000  108118.2   546912.7
    7.500     5.039     6.022     0.546     0.163     0.000  107386.6   541136.1
    8.000     5.023     6.003     0.545     0.163     0.000  106481.4   534861.3
    8.500     5.010     5.985     0.545     0.163     0.000  106003.6   531128.7
    9.000     5.001     5.974     0.545     0.163     0.000  105427.9   527257.2
    9.500     4.995     5.965     0.545     0.163     0.000  105169.0   525309.6
   10.000     4.991     5.960     0.544     0.163     0.000  104960.5   523896.3
   10.500     4.990     5.959     0.544     0.163     0.000  104855.9   523241.9
   11.000     4.991     5.959     0.545     0.163     0.000  105014.5   524086.9
   11.500     4.992     5.963     0.545     0.163     0.000  104987.6   524123.0
   12.000     4.995     5.966     0.547     0.163     0.000  105452.8   526697.9
   12.500     4.997     5.973     0.547     0.163     0.000  105431.1   526832.7
   13.000     4.999     5.976     0.549     0.164     0.000  106080.5   530308.3
   13.500     5.000     5.983     0.549     0.164     0.000  106009.6   530073.2
   14.000     5.001     5.984     0.552     0.165     0.000  106683.4   533481.0
   14.500     4.999     5.990     0.552     0.165     0.000  106536.8   532621.4
   15.000     4.997     5.987     0.554     0.166     0.000  107078.8   535102.0
   15.500     4.994     5.989     0.554     0.166     0.000  106867.0   533660.2
   16.000     4.989     5.984     0.556     0.167     0.000  107167.5   534711.0
   16.500     4.985     5.983     0.556     0.167     0.000  106940.6   533056.8
   17.000     4.980     5.978     0.557     0.167     0.000  106962.5   532667.9
   17.500     4.976     5.975     0.557     0.167     0.000  106801.2   531427.5
   18.000     4.973     5.972     0.557     0.167     0.000  106585.8   530062.0
   18.500     4.972     5.969     0.557     0.167     0.000  106582.0   529964.2
   19.000     4.974     5.972     0.555     0.166     0.000  106228.0   528384.8
   19.500     4.979     5.973     0.555     0.166     0.000  106461.8   530078.4
   20.000     4.987     5.983     0.552     0.165     0.000  106087.7   529087.2
   20.500     4.999     5.991     0.552     0.165     0.000  106605.7   532973.9
   21.000     5.015     6.010     0.549     0.164     0.000  106308.1   533143.9
   21.500     5.035     6.024     0.549     0.164     0.000  107110.1   539260.1
   22.000     5.057     6.051     0.545     0.163     0.000  106931.9   540745.0
   22.500     5.082     6.071     0.545     0.163     0.000  107969.8   548732.8
   23.000     5.109     6.103     0.541     0.161     0.000  107891.1   551226.1
   23.500     5.138     6.126     0.541     0.161     0.000  109080.6   560417.9
   24.000     5.166     6.160     0.537     0.160     0.000  109033.3   563280.0
   24.500     5.195     6.183     0.537     0.160     0.000  110278.4   572892.2
   25.000     5.222     6.216     0.533     0.158     0.000  110184.0   575433.4
   25.500     5.249     6.236     0.533     0.158     0.000  111401.6   584791.4
   26.000     5.274     6.266     0.528     0.157     0.000  111209.1   586550.0
   26.500     5.298     6.282     0.528     0.157     0.000  112347.0   595239.7
   27.000     5.320     6.308     0.524     0.155     0.000  112052.2   596118.6
   27.500     5.341     6.321     0.524     0.155     0.000  113091.6   604011.2
   28.000     5.360     6.343     0.520     0.153     0.000  112730.3   604226.4
   28.500     5.378     6.354     0.520     0.153     0.000  113677.5   611403.7
   29.000     5.395     6.374     0.516     0.152     0.000  113309.7   611357.0
   29.500     5.412     6.383     0.516     0.152     0.000  114179.8   617973.8
   30.000     5.428     6.401     0.512     0.151     0.000  113868.2   618080.4
   30.500     5.444     6.410     0.512     0.151     0.000  114668.8   624218.4
   31.000     5.458     6.427     0.509     0.150     0.000  114461.6   624764.9
   31.500     5.473     6.436     0.509     0.150     0.000  115183.9   630353.7
   32.000     5.486     6.452     0.507     0.149     0.000  115097.4   631389.0
   32.500     5.498     6.460     0.507     0.149     0.000  115717.5   636219.7
   33.000     5.509     6.473     0.505     0.148     0.000  115729.6   637544.6
   33.500     5.519     6.480     0.505     0.148     0.000  116217.9   641361.2
   34.000     5.527     6.489     0.504     0.148     0.000  116276.3   642616.2
   34.500     5.533     6.494     0.504     0.148     0.000  116608.8   645218.8
   35.000     5.538     6.499     0.504     0.148     0.000  116650.0   646009.2
   35.500     5.541     6.502     0.504     0.148     0.000  116816.2   647312.8
   36.000     5.543     6.504     0.503     0.148     0.000  116787.9   647348.1
   36.500     5.543     6.503     0.503     0.148     0.000  116796.1   647419.5
   37.000     5.542     6.502     0.503     0.148     0.000  116672.3   646605.9
   37.500     5.540     6.499     0.503     0.148     0.000  116552.3   645695.2
   38.000     5.537     6.495     0.503     0.147     0.000  116341.6   644194.0
   38.500     5.534     6.491     0.503     0.147     0.000  116139.2   642692.9
   39.000     5.530     6.487     0.503     0.147     0.000  115879.6   640864.3
   39.500     5.527     6.483     0.503     0.147     0.000  115642.8   639185.9
   40.000     5.524     6.480     0.503     0.147     0.000  115379.7   637404.8
   40.500     5.522     6.477     0.503     0.147     0.000  115139.7   635804.0
   41.000     5.520     6.474     0.503     0.147     0.000  114892.8   634209.5
   41.500     5.518     6.472     0.503     0.147     0.000  114653.5   632682.0
   42.000     5.516     6.470     0.503     0.147     0.000  114397.1   631052.0
   42.500     5.514     6.467     0.503     0.147     0.000  114137.7   629358.5
   43.000     5.511     6.464     0.503     0.147     0.000  113804.8   627165.0
   43.500     5.507     6.458     0.503     0.147     0.000  113490.6   624937.0
   44.000     5.500     6.451     0.502     0.147     0.000  113001.5   621562.9
   44.500     5.493     6.441     0.502     0.147     0.000  112598.7   618456.7
   45.000     5.482     6.429     0.501     0.147     0.000  111902.4   613501.8
   45.500     5.470     6.412     0.501     0.147     0.000  111399.7   609392.8
   46.000     5.456     6.396     0.500     0.147     0.000  110506.6   602934.5
   46.500     5.440     6.374     0.500     0.147     0.000  109930.7   598065.1
   47.000     5.423     6.355     0.499     0.146     0.000  108923.0   590739.2
   47.500     5.406     6.331     0.499     0.146     0.000  108342.2   585736.0
   48.000     5.390     6.311     0.498     0.146     0.000  107357.5   578610.1
   48.500     5.374     6.290     0.498     0.146     0.000  106868.3   574344.0
   49.000     5.361     6.275     0.496     0.145     0.000  106066.3   568639.0
   49.500     5.351     6.260     0.496     0.145     0.000  105767.8   565988.0
   50.000     5.345     6.252     0.495     0.145     0.000  105290.2   562767.4
   50.500     5.343     6.247     0.495     0.145     0.000  105258.8   562397.1
   51.000     5.346     6.250     0.495     0.145     0.000  105194.4   562324.6
   51.500     5.353     6.257     0.495     0.145     0.000  105465.7   564548.5
   52.000     5.365     6.271     0.494     0.144     0.000  105821.6   567706.2
   52.500     5.381     6.289     0.494     0.144     0.000  106380.8   572407.5
   53.000     5.400     6.312     0.494     0.144     0.000  107063.8   578168.0
   53.500     5.422     6.338     0.494     0.144     0.000  107840.8   584748.6
   54.000     5.446     6.366     0.494     0.144     0.000  108662.8   591784.2
   54.500     5.470     6.394     0.494     0.144     0.000  109539.5   599217.4
   55.000     5.494     6.422     0.494     0.144     0.000  110265.5   605804.2
   55.500     5.516     6.446     0.494     0.144     0.000  111103.4   612886.0
   56.000     5.536     6.470     0.493     0.144     0.000  111535.8   617498.9
   56.500     5.554     6.487     0.493     0.144     0.000  112217.2   623217.7
   57.000     5.568     6.504     0.491     0.143     0.000  112271.1   625104.8
   57.500     5.579     6.513     0.491     0.143     0.000  112736.8   628971.3
   58.000     5.587     6.522     0.489     0.143     0.000  112462.9   628366.9
   58.500     5.593     6.524     0.489     0.143     0.000  112726.8   630516.1
   59.000     5.597     6.529     0.487     0.142     0.000  112269.5   628383.0
   59.500     5.600     6.526     0.487     0.142     0.000  112409.3   629470.0
   60.000     5.602     6.529     0.485     0.141     0.000  111936.4   627023.4
   60.500     5.604     6.526     0.485     0.141     0.000  112058.6   627937.7
   61.000     5.606     6.529     0.484     0.141     0.000  111703.7   626224.2
   61.500     5.610     6.529     0.484     0.141     0.000  111904.2   627771.0
   62.000     5.615     6.535     0.483     0.140     0.000  111744.2   627439.3
   62.500     5.622     6.540     0.483     0.140     0.000  112074.8   630064.3
   63.000     5.630     6.549     0.482     0.140     0.000  112135.2   631337.6
   63.500     5.640     6.558     0.482     0.140     0.000  112594.6   635040.3
   64.000     5.651     6.571     0.481     0.140     0.000  112865.2   637802.8
   64.500     5.663     6.583     0.481     0.140     0.000  113409.8   642219.0
   65.000     5.675     6.597     0.481     0.140     0.000  113862.8   646156.1
   65.500     5.687     6.610     0.481     0.140     0.000  114426.4   650721.6
   66.000     5.698     6.623     0.481     0.140     0.000  115026.6   655442.8
   66.500     5.709     6.636     0.481     0.140     0.000  115541.2   659580.3
   67.000     5.718     6.646     0.481     0.140     0.000  116245.4   664678.6
   67.500     5.726     6.657     0.481     0.140     0.000  116654.5   667922.6
   68.000     5.732     6.665     0.483     0.140     0.000  117404.3   672954.7
   68.500     5.736     6.673     0.483     0.140     0.000  117670.0   675003.5
   69.000     5.739     6.676     0.484     0.141     0.000  118385.1   679451.3
   69.500     5.740     6.682     0.484     0.141     0.000  118488.8   680162.5
   70.000     5.740     6.681     0.486     0.141     0.000  119072.5   683447.5
   70.500     5.737     6.683     0.486     0.141     0.000  119010.4   682794.6
   71.000     5.733     6.678     0.487     0.142     0.000  119370.4   684384.0
   71.500     5.727     6.675     0.487     0.142     0.000  119150.1   682425.0
   72.000     5.720     6.666     0.488     0.142     0.000  119226.3   681990.5
   72.500     5.711     6.659     0.488     0.142     0.000  118861.8   678833.8
   73.000     5.701     6.647     0.489     0.143     0.000  118646.2   676367.8
   73.500     5.689     6.635     0.489     0.143     0.000  118156.3   672169.1
   74.000     5.676     6.619     0.489     0.143     0.000  117694.9   667996.4
   74.500     5.661     6.603     0.489     0.143     0.000  117102.6   662951.6
   75.000     5.646     6.585     0.489     0.143     0.000  116480.5   657636.2
   75.500     5.630     6.566     0.489     0.143     0.000  115811.5   651971.5
   76.000     5.613     6.546     0.489     0.143     0.000  115129.7   646173.8
   76.500     5.595     6.526     0.489     0.143     0.000  114410.3   640124.2
   77.000     5.577     6.505     0.490     0.143     0.000  113766.0   634476.5
   77.500     5.559     6.485     0.490     0.143     0.000  113020.2   628257.5
   78.000     5.541     6.463     0.490     0.143     0.000  112493.0   623268.3
   78.500     5.522     6.443     0.490     0.143     0.000  111733.5   616998.1
   79.000     5.504     6.422     0.491     0.143     0.000  111375.2   612968.2
   79.500     5.485     6.403     0.491     0.143     0.000  110598.8   606627.1
   80.000     5.466     6.382     0.493     0.144     0.000  110436.5   603669.4
   80.500     5.447     6.364     0.493     0.144     0.000  109627.8   597136.7
   81.000     5.428     6.342     0.496     0.145     0.000  109669.7   595235.0
   81.500     5.407     6.325     0.496     0.145     0.000  108811.2   588371.8
   82.000     5.387     6.301     0.500     0.146     0.000  109055.0   587460.7
   82.500     5.365     6.286     0.500     0.146     0.000  108138.0   580205.4
   83.000     5.344     6.260     0.504     0.148     0.000  108576.0   580223.7
   83.500     5.322     6.246     0.504     0.148     0.000  107604.9   572621.1
   84.000     5.299     6.220     0.510     0.150     0.000  108215.5   573461.0
   84.500     5.276     6.206     0.510     0.150     0.000  107204.9   565621.8
   85.000     5.253     6.179     0.515     0.152     0.000  107939.5   567036.1
   85.500     5.230     6.166     0.515     0.152     0.000  106910.9   559106.9
   86.000     5.207     6.139     0.521     0.154     0.000  107699.7   560752.3
   86.500     5.183     6.127     0.521     0.154     0.000  106682.9   552941.9
   87.000     5.160     6.100     0.527     0.156     0.000  107464.2   554564.7
   87.500     5.138     6.089     0.527     0.156     0.000  106496.0   547154.2
   88.000     5.117     6.064     0.533     0.158     0.000  107224.1   548621.3
   88.500     5.096     6.054     0.533     0.158     0.000  106337.6   541871.0
   89.000     5.077     6.031     0.538     0.160     0.000  106982.4   543115.2
   89.500     5.058     6.022     0.538     0.160     0.000  106196.1   537162.9
   90.000     5.041     6.002     0.542     0.162     0.000  106746.6   538157.2
   90.500     5.025     5.994     0.542     0.162     0.000  106064.2   533002.0
   91.000     5.011     5.977     0.549     0.164     0.000  107504.4   538662.6
   91.500     4.996     5.978     0.549     0.164     0.000  106891.1   534004.5
   92.000     4.982     5.962     0.556     0.167     0.000  108380.7   540005.4
   92.500     4.969     5.965     0.556     0.167     0.000  107845.8   535911.2
   93.000     4.958     5.951     0.563     0.169     0.000  109404.1   542407.9
   93.500     4.947     5.956     0.563     0.169     0.000  108968.1   539057.3
   94.000     4.938     5.946     0.570     0.172     0.000  110621.1   546283.1
   94.500     4.931     5.955     0.570     0.172     0.000  110304.7   543872.7
   95.000     4.926     5.949     0.576     0.175     0.000  112039.2   551858.5
   95.500     4.922     5.963     0.576     0.175     0.000  111853.4   550505.6
   96.000     4.920     5.961     0.581     0.176     0.000  113174.2   556865.5
   96.500     4.921     5.975     0.581     0.176     0.000  113131.5   556679.1
   97.000     4.923     5.978     0.584     0.178     0.000  114187.8   562177.6
   97.500     4.927     5.992     0.584     0.178     0.000  114281.8   563105.5
   98.000     4.933     6.000     0.587     0.179     0.000  115221.4   568440.5
   98.500     4.941     6.016     0.587     0.179     0.000  115433.7   570334.0
   99.000     4.950     6.027     0.589     0.180     0.000  116384.9   576076.5
   99.500     4.960     6.045     0.589     0.180     0.000  116691.4   578739.3
  100.000     4.971     6.058     0.592     0.181     0.000  117956.5   586316.2
  100.500     4.982     6.081     0.592     0.181     0.000  118325.3   589486.8
  101.000     4.994     6.095     0.594     0.181     0.000  119309.3   595843.0
  101.500     5.007     6.116     0.594     0.181     0.000  119733.9   599449.9
  102.000     5.020     6.132     0.594     0.181     0.000  120275.1   603725.1
  102.500     5.033     6.149     0.594     0.181     0.000  120761.1   607787.9
  103.000     5.047     6.166     0.595     0.182     0.000  121670.0   614045.4
  103.500     5.061     6.186     0.595     0.182     0.000  122203.4   618425.5
  104.000     5.075     6.204     0.595     0.182     0.000  122625.6   622290.4
  104.500     5.089     6.220     0.595     0.182     0.000  123227.5   627124.6
  105.000     5.104     6.238     0.596     0.182     0.000  124138.8   633577.3
  105.500     5.118     6.258     0.596     0.182     0.000  124799.3   638761.5
  106.000     5.133     6.276     0.595     0.182     0.000  125140.2   642341.1
  106.500     5.148     6.291     0.595     0.182     0.000  125883.7   648051.9
  107.000     5.163     6.310     0.592     0.181     0.000  125820.9   649622.9
  107.500     5.179     6.321     0.592     0.181     0.000  126657.0   655931.0
  108.000     5.194     6.340     0.589     0.180     0.000  126575.6   657478.9
  108.500     5.210     6.351     0.589     0.180     0.000  127490.3   664286.5
  109.000     5.226     6.371     0.586     0.178     0.000  127117.9   664350.4
  109.500     5.243     6.379     0.586     0.178     0.000  128090.3   671528.5
  110.000     5.258     6.398     0.581     0.176     0.000  127477.6   670313.1
  110.500     5.274     6.404     0.581     0.176     0.000  128464.2   677563.0
  111.000     5.289     6.422     0.576     0.174     0.000  127559.1   674689.2
  111.500     5.304     6.424     0.576     0.174     0.000  128504.6   681617.5
  112.000     5.318     6.440     0.570     0.172     0.000  127494.7   677965.4
  112.500     5.331     6.439     0.570     0.172     0.000  128341.5   684145.4
  113.000     5.342     6.453     0.564     0.170     0.000  127178.3   679364.2
  113.500     5.353     6.449     0.564     0.170     0.000  127891.6   684544.7
  114.000     5.361     6.460     0.559     0.168     0.000  126527.7   678361.5
  114.500     5.370     6.453     0.559     0.168     0.000  127102.4   682529.8
  115.000     5.377     6.461     0.553     0.166     0.000  125792.5   676363.8
  115.500     5.384     6.454     0.553     0.166     0.000  126236.5   679598.0
  116.000     5.389     6.461     0.552     0.165     0.000  125929.3   678610.2
  116.500     5.393     6.460     0.552     0.165     0.000  126227.6   680778.5
  117.000     5.396     6.464     0.546     0.163     0.000  124586.7   672324.7
  117.500     5.400     6.452     0.546     0.163     0.000  124792.4   673839.7
  118.000     5.402     6.455     0.541     0.161     0.000  123313.8   666096.9
  118.500     5.403     6.443     0.541     0.161     0.000  123434.1   666971.8
  119.000     5.404     6.444     0.536     0.160     0.000  121867.0   658574.3
  119.500     5.405     6.431     0.536     0.160     0.000  121927.6   658973.9
  120.000     5.404     6.430     0.533     0.158     0.000  120835.5   653027.6
  120.500     5.404     6.421     0.533     0.158     0.000  120866.7   653166.2
  121.000     5.403     6.420     0.527     0.156     0.000  118836.0   642124.6
  121.500     5.404     6.404     0.527     0.156     0.000  118929.3   642740.8
  122.000     5.406     6.405     0.523     0.154     0.000  117627.7   635866.9
